"wavelength","Geothite","hematite","gypsum","calcite","kaolinite_114","kaolinite_113","montmorillinite_126","monmorillinite_127","illite_121","illite_120","kaol_smect_124","kaol_smect_125"
350,0.0191,0.0199,0.872415999,0.7964224469,0.3238,0.3859912258,0.3197,0.5019189879,0.355,0.1544052586,0.1139191783,0.1363377386
351,0.0191,0.019,0.873191532,0.7979764331,0.3291,0.3922203121,0.3216,0.5038569135,0.3563,0.1537566535,0.1161555038,0.1384058898
352,0.0189,0.0182,0.8736871238,0.7991303777,0.3343,0.3985663874,0.3235,0.5054386251,0.3577,0.1530541848,0.118406292,0.14046233
353,0.0187,0.0176,0.8739835731,0.7993329705,0.339,0.4049491559,0.3253,0.5067690378,0.3591,0.152678777,0.1206007354,0.1424306904
354,0.0185,0.0172,0.8741727768,0.7982417219,0.3431,0.4112967381,0.3266,0.5079596258,0.3605,0.1529375513,0.1226864696,0.1442538834
355,0.0183,0.017,0.8744066603,0.7966436073,0.3468,0.4175827771,0.3277,0.5091573414,0.362,0.1537384432,0.1247108844,0.1459791078
356,0.0181,0.017,0.8748573513,0.7957057185,0.3506,0.4237962367,0.3286,0.5105210764,0.3634,0.1548550445,0.1267549417,0.1476886593
357,0.018,0.0171,0.8756969924,0.796595434,0.3546,0.429926092,0.3296,0.5122097321,0.365,0.1560608452,0.1288996286,0.1494648603
358,0.0179,0.0172,0.8770277595,0.8000751119,0.3593,0.4359605976,0.3307,0.5143029272,0.3666,0.157161619,0.131208156,0.1513623022
359,0.0178,0.0174,0.8785733921,0.8047164443,0.3644,0.4418841107,0.3321,0.5164514614,0.3683,0.1581377531,0.1336475889,0.1532855859
360,0.0177,0.0176,0.8799302683,0.8083538641,0.3697,0.4476796765,0.3337,0.518161817,0.3699,0.1590283998,0.1361526344,0.1550888333
361,0.0175,0.0176,0.8807033971,0.8088716881,0.3749,0.4533354755,0.3354,0.5189534332,0.3714,0.1598723206,0.1386589182,0.1566298835
362,0.0174,0.0176,0.8808370378,0.8061150614,0.3798,0.4590393472,0.3373,0.5188536871,0.3728,0.1606913501,0.1411387193,0.157912543
363,0.0173,0.0176,0.8807161477,0.8024763155,0.3843,0.4652384952,0.3393,0.5185497845,0.3741,0.1614853345,0.1436119311,0.159130236
364,0.0173,0.0178,0.8807463903,0.8004744475,0.3883,0.4723801945,0.3416,0.5187582633,0.3757,0.1622524455,0.146101202,0.1604858769
365,0.0174,0.0181,0.8809934155,0.8009348068,0.392,0.4802406286,0.344,0.5196216656,0.3775,0.1629828893,0.1486125749,0.162058678
366,0.0175,0.0184,0.8810811835,0.8024826337,0.3958,0.4877242096,0.3468,0.5205368926,0.3794,0.1636565241,0.1511305212,0.1637671575
367,0.0174,0.0184,0.8806159383,0.8036259897,0.4003,0.493704235,0.3499,0.5208661313,0.3814,0.1642541907,0.1536384756,0.1655198245
368,0.0174,0.0183,0.8796627583,0.8040336775,0.4057,0.4981093448,0.3532,0.5205593003,0.3834,0.1648218115,0.1561355933,0.16725357
369,0.0173,0.018,0.8788827642,0.8048823428,0.4114,0.5022391065,0.3567,0.5203298026,0.3854,0.165489852,0.1586414512,0.1689421539
370,0.0172,0.0179,0.8789620315,0.807412127,0.417,0.5074610246,0.3602,0.5209260985,0.3875,0.1663907738,0.1611767291,0.1705633113
371,0.0173,0.0179,0.8800081868,0.8114140584,0.422,0.5142218739,0.3637,0.5224759107,0.3895,0.1675149733,0.1637519135,0.1721535155
372,0.0173,0.018,0.8813774316,0.814796716,0.4266,0.5217723694,0.3672,0.5243006023,0.3916,0.1686682992,0.1663642496,0.173825543
373,0.0174,0.0182,0.8823858511,0.8153943357,0.4306,0.5292870503,0.371,0.5256806199,0.3938,0.1696487955,0.1690097157,0.1756939657
374,0.0174,0.0182,0.882742283,0.8130418132,0.4341,0.5360865922,0.375,0.5264007707,0.3961,0.1704305548,0.1716694427,0.1777449119
375,0.0175,0.0183,0.8826657642,0.8101729728,0.4375,0.5416815071,0.379,0.5269010443,0.3983,0.1712163634,0.1743052743,0.1797976572
376,0.0175,0.0182,0.8824086079,0.8093474579,0.4412,0.5456181975,0.3828,0.5276571301,0.4005,0.1722205834,0.1768791757,0.1816642851
377,0.0176,0.0182,0.8821912016,0.8112639098,0.4452,0.5483450986,0.3867,0.5288303353,0.4026,0.1735134205,0.1794079545,0.1833107755
378,0.0176,0.0182,0.8821924608,0.8142034621,0.4493,0.5514824178,0.391,0.5301735733,0.4046,0.1749778168,0.1819796597,0.1849030262
379,0.0177,0.0183,0.8825850678,0.8163200581,0.4532,0.556679769,0.3961,0.531417539,0.4067,0.1764849232,0.1846845209,0.1866177516
380,0.0178,0.0185,0.8834071435,0.8171040026,0.4569,0.5636855701,0.4018,0.5324902227,0.4089,0.1779340422,0.187512432,0.1885327775
381,0.0178,0.0187,0.8845220084,0.8177815811,0.4609,0.5697785187,0.4067,0.5335759092,0.4111,0.1792610455,0.1903229473,0.1905974693
382,0.0178,0.0189,0.8857097133,0.8194659961,0.4652,0.5727754911,0.41,0.5347645271,0.4134,0.1804328838,0.1929954197,0.1927299275
383,0.0178,0.0192,0.8863631065,0.8220312914,0.4689,0.5742970033,0.4135,0.5355430121,0.4155,0.1815713864,0.1955634026,0.1947255826
384,0.0178,0.0195,0.8859930474,0.8249247238,0.471,0.5767356472,0.4193,0.5355737915,0.4174,0.1828422412,0.1981010517,0.1964319666
385,0.0178,0.0198,0.8854534185,0.8275404819,0.4735,0.5797371947,0.4252,0.5365659678,0.4191,0.184366472,0.200621476,0.198201683
386,0.0178,0.0198,0.8858011184,0.8293634091,0.4781,0.5823369763,0.4286,0.5401997139,0.4206,0.1861745161,0.2031162318,0.2004235066
387,0.0178,0.0197,0.886746572,0.8304646933,0.4838,0.585269678,0.4308,0.5442734039,0.4222,0.1878882105,0.2055714786,0.2027625425
388,0.0178,0.0194,0.88760655,0.831109532,0.4885,0.5894667881,0.4341,0.5460725041,0.4238,0.1891130045,0.2079744447,0.2047618785
389,0.0179,0.0192,0.8880199023,0.8315452765,0.4911,0.5938300777,0.4378,0.547174281,0.4255,0.1901093614,0.2103279356,0.2066219852
390,0.0179,0.0192,0.8878736261,0.8320015369,0.4918,0.5969989765,0.4408,0.5498673047,0.4272,0.1912797452,0.2126446551,0.2086759702
391,0.0178,0.0194,0.8878100702,0.8326447139,0.4925,0.5998889372,0.4436,0.552474353,0.4288,0.1926023242,0.2149624934,0.2107775428
392,0.0178,0.0197,0.888500732,0.8336348953,0.4954,0.6036648474,0.4472,0.5526634028,0.4306,0.19394439,0.2173025541,0.2126784265
393,0.0177,0.02,0.8894001388,0.8352130586,0.5001,0.6066973277,0.4506,0.5517806714,0.4323,0.1953460677,0.2195493156,0.2144515554
394,0.0176,0.02,0.8897156495,0.8374797583,0.5053,0.6072343139,0.4525,0.5519679597,0.4338,0.1968808969,0.2215771018,0.2162471594
395,0.0176,0.0199,0.8895330386,0.8396287788,0.5098,0.607946922,0.4541,0.5529737997,0.4353,0.1984883905,0.2234539894,0.2180487037
396,0.0176,0.0195,0.8892410513,0.8407736184,0.5126,0.6119704191,0.4565,0.5538653189,0.4368,0.2000570544,0.2252969722,0.2197910261
397,0.0176,0.0192,0.8892678157,0.841243927,0.5145,0.6168988722,0.4594,0.5543816453,0.4383,0.2014435272,0.2271349209,0.2214496192
398,0.0177,0.0194,0.8898876188,0.8417979115,0.5165,0.6193011114,0.4615,0.5545563953,0.4398,0.202558214,0.2289769569,0.2230314637
399,0.0177,0.0197,0.8904713831,0.843297874,0.5186,0.6202879794,0.4636,0.5547918325,0.4413,0.2036602704,0.2308858602,0.2246397818
400,0.0176,0.02,0.8902854138,0.846324524,0.5204,0.6219680232,0.4663,0.5555719658,0.4429,0.2050204101,0.2329142729,0.2263887518
401,0.0176,0.0201,0.8896743505,0.8497466017,0.5227,0.623576913,0.4695,0.5571523026,0.4444,0.2063371014,0.2349623036,0.2282766637
402,0.0175,0.0202,0.8892622767,0.8521499053,0.5264,0.6239712939,0.4722,0.5594717775,0.4459,0.207252279,0.2368915526,0.230230456
403,0.0175,0.0202,0.8892216903,0.8537057767,0.5303,0.6251886212,0.4745,0.5611731082,0.4473,0.2081437738,0.2386329832,0.2320021097
404,0.0176,0.0203,0.8895776883,0.8549348869,0.5329,0.6294531759,0.4765,0.5609280332,0.4487,0.2094961053,0.2401726423,0.2333546202
405,0.0177,0.0204,0.8903805109,0.8553607939,0.5346,0.6342091852,0.4787,0.5599243298,0.4499,0.2110312186,0.2416681995,0.2344289368
406,0.0177,0.0205,0.8915903304,0.8547771207,0.5366,0.6361001036,0.4813,0.5598440316,0.4511,0.2122808567,0.2432997071,0.2354653356
407,0.0177,0.0205,0.8926341883,0.8562537366,0.5401,0.6361395791,0.4839,0.5604625861,0.4522,0.2131362652,0.2450559503,0.2365533534
408,0.0177,0.0204,0.8929285378,0.8625434488,0.5457,0.6364925448,0.4859,0.5611657185,0.4535,0.2137261937,0.2468673734,0.2377390789
409,0.0177,0.0203,0.8928028991,0.8687207601,0.5506,0.6375948128,0.4886,0.5627024701,0.4548,0.214809335,0.248697062,0.2391081272
410,0.0178,0.0203,0.8928615318,0.8690263342,0.5516,0.6392998937,0.4928,0.5657705794,0.4562,0.2170128034,0.2505115535,0.2407096055
411,0.0178,0.0204,0.8935326292,0.8671671801,0.5508,0.6414608593,0.4969,0.5683081152,0.4576,0.2191056731,0.2522365612,0.2423231499
412,0.0178,0.0203,0.8949448846,0.8687223196,0.5512,0.6438733226,0.4986,0.5680346314,0.4588,0.2196944712,0.2538075879,0.2437039443
413,0.0178,0.0203,0.8959311745,0.872168846,0.5528,0.6460232411,0.4997,0.5665071753,0.46,0.2198852366,0.2552873233,0.2449649855
414,0.0179,0.0203,0.8955746136,0.8747605639,0.5549,0.6475305261,0.5021,0.5657347345,0.4612,0.2209228152,0.2567640369,0.2462554633
415,0.018,0.0204,0.8944917024,0.8763587842,0.5575,0.6485472373,0.5054,0.5658506159,0.4623,0.2224827089,0.2582875307,0.2475363862
416,0.018,0.0206,0.8935049778,0.8771784919,0.5609,0.6492973083,0.5086,0.5667337856,0.4635,0.2240290136,0.259902214,0.2487434725
417,0.0181,0.0208,0.8931220267,0.8775656206,0.5647,0.6499750027,0.5113,0.5681748819,0.4645,0.2252426458,0.2616135658,0.2498515715
418,0.0182,0.0209,0.8931477415,0.8781582674,0.5681,0.6507083858,0.5137,0.5697674705,0.4656,0.226288276,0.2633402072,0.2509228388
419,0.0182,0.0208,0.8932926648,0.8796318939,0.5703,0.6516163887,0.5162,0.5710791889,0.4667,0.2273956086,0.2649891776,0.2520311278
420,0.0183,0.0206,0.8934220352,0.882202587,0.5711,0.652780375,0.519,0.5718338155,0.4678,0.2287049525,0.2665037641,0.2532258689
421,0.0184,0.0203,0.8937462378,0.8850615075,0.5717,0.6541978898,0.5219,0.5721035007,0.4689,0.2301571646,0.2679081274,0.2545020015
422,0.0184,0.0203,0.8945213091,0.8872632133,0.5737,0.6558548239,0.5248,0.57200769,0.4698,0.2316661874,0.2692373677,0.2558469516
423,0.0185,0.0205,0.8957808708,0.8883024247,0.5778,0.6576706954,0.5275,0.5716994113,0.4707,0.2331614735,0.2705259447,0.2572183269
424,0.0186,0.0207,0.8970623071,0.8886559234,0.5824,0.6594169359,0.5299,0.5714066191,0.4715,0.2346070792,0.2718068883,0.2585072074
425,0.0187,0.0209,0.8978368969,0.8889329243,0.5861,0.6608455555,0.5319,0.5713668763,0.4723,0.2359719376,0.2731130033,0.2595962042
426,0.0188,0.0208,0.8977961474,0.8896481792,0.5879,0.6618390641,0.5336,0.5717054435,0.4732,0.2372662047,0.2744702943,0.2604809561
427,0.0189,0.0206,0.8971229239,0.8911056787,0.5889,0.6625711342,0.5352,0.57229702,0.4742,0.2385920099,0.2758895943,0.2614092804
428,0.0191,0.0204,0.8960668817,0.8935787693,0.5905,0.6632544398,0.5372,0.5729825947,0.4752,0.2400636041,0.2773795503,0.262662344
429,0.0192,0.0204,0.8949425433,0.8968899012,0.5934,0.664017995,0.5397,0.5736438016,0.4761,0.2417267,0.2789205453,0.2643576706
430,0.0194,0.0205,0.8942091583,0.8998555148,0.5967,0.6648041574,0.5423,0.5742529607,0.4771,0.243474093,0.2804299026,0.2662476738
431,0.0196,0.0206,0.894343836,0.9011602759,0.5995,0.6655303666,0.5445,0.574794685,0.478,0.24517811,0.281816628,0.2680358854
432,0.0198,0.0208,0.8954583861,0.900409977,0.6012,0.6661856923,0.5461,0.575258443,0.4791,0.2467582545,0.2830353439,0.2695359772
433,0.02,0.0209,0.8968495871,0.8992655655,0.6025,0.6669190209,0.5474,0.5756445367,0.4801,0.2482392871,0.2841424496,0.2708073591
434,0.0202,0.021,0.8977060502,0.8996609613,0.6043,0.6679006567,0.5488,0.5759551277,0.4813,0.2496602445,0.2852080251,0.2719426897
435,0.0204,0.0209,0.8976640227,0.9024481146,0.607,0.6692572251,0.5504,0.5762758719,0.4824,0.2510674706,0.286283036,0.2730343316
436,0.0206,0.0208,0.8973584875,0.9060649587,0.6105,0.6710178974,0.5522,0.5768787124,0.4836,0.2525236121,0.2873758009,0.2741739877
437,0.0208,0.0207,0.8975574011,0.9086268894,0.6145,0.6731977747,0.5543,0.5780594127,0.4846,0.2540932256,0.2884888507,0.2754529552
438,0.0211,0.0205,0.8985703962,0.9091174513,0.6187,0.675624494,0.5566,0.579820048,0.4855,0.2557781177,0.2896210009,0.2768954398
439,0.0213,0.0204,0.8996845251,0.908457143,0.6224,0.6777074351,0.5591,0.581507435,0.4864,0.2574400916,0.2907627772,0.2783759577
440,0.0215,0.0204,0.9000504972,0.9078269073,0.6251,0.6788017875,0.5619,0.5823818817,0.4873,0.258922397,0.2919036571,0.2797491636
441,0.0217,0.0205,0.8992470768,0.9080603166,0.6265,0.678772017,0.5649,0.5821598725,0.4882,0.2601509749,0.2930486454,0.2809529511
442,0.0219,0.0206,0.8978080746,0.9092159144,0.6277,0.6786188531,0.5678,0.5815756821,0.4892,0.2612362619,0.2942373909,0.2821109304
443,0.0221,0.0207,0.8963959651,0.9112468902,0.6296,0.6794936999,0.5704,0.5814996701,0.4903,0.2623133751,0.2955140961,0.2833714452
444,0.0223,0.0207,0.8955543409,0.9140030495,0.6328,0.6818972821,0.5724,0.5824569227,0.4914,0.2634574918,0.2968946763,0.2847990947
445,0.0225,0.0206,0.8955615548,0.917103535,0.6365,0.6848785723,0.5742,0.584202175,0.4926,0.2646100558,0.2983319342,0.2862716321
446,0.0227,0.0205,0.896658671,0.920135894,0.64,0.6872929293,0.5762,0.5863865682,0.4937,0.2656947075,0.29977028,0.2876418985
447,0.0229,0.0204,0.898790018,0.9226060037,0.6429,0.688592988,0.5785,0.5887967714,0.4947,0.2666969135,0.3011853872,0.2888410205
448,0.0231,0.0204,0.9012378674,0.9238375244,0.6453,0.6895639866,0.5807,0.5915218348,0.4957,0.2677400825,0.3026226805,0.2899747903
449,0.0233,0.0203,0.9031961362,0.9231348627,0.6473,0.6911680538,0.5825,0.5946888945,0.4967,0.2689657561,0.3041366816,0.2911723429
450,0.0235,0.0203,0.9041186626,0.9209475711,0.6493,0.6936424939,0.5839,0.5978254819,0.4977,0.2704028223,0.3057095861,0.2925011502
451,0.0236,0.0202,0.9040392031,0.9202801735,0.6513,0.695607431,0.5855,0.5991213315,0.4988,0.2718288236,0.307162222,0.2938911069
452,0.0238,0.0204,0.9031344686,0.9238321552,0.6536,0.6956709498,0.588,0.5969920683,0.4999,0.273021444,0.3083198229,0.2952615722
453,0.0239,0.0205,0.9022469163,0.9275849814,0.6557,0.6945758029,0.5907,0.5940540281,0.501,0.2741109251,0.3092785148,0.2966153175
454,0.024,0.0206,0.9024723859,0.9245653524,0.6571,0.6941763748,0.592,0.594899658,0.502,0.2753925667,0.3102781905,0.2979701027
455,0.0241,0.0205,0.9034729704,0.9181601757,0.6583,0.6948184485,0.5923,0.5989701292,0.5028,0.2767211457,0.3113951674,0.2989910485
456,0.0242,0.0205,0.9041508633,0.9170191433,0.6602,0.6959673928,0.5932,0.6028277422,0.5035,0.2777201882,0.312608089,0.2992425177
457,0.0243,0.0204,0.9043153549,0.9207927326,0.6614,0.6972749852,0.595,0.6048432216,0.5041,0.2783218172,0.3138948096,0.2993975751
458,0.0244,0.0202,0.9042445521,0.9241530203,0.6597,0.6984755981,0.5974,0.6045836409,0.5047,0.2786784872,0.3152240888,0.3006188091
459,0.0244,0.02,0.9034720645,0.9255998929,0.6576,0.6989516844,0.5997,0.6027261103,0.5054,0.2793195877,0.3164679154,0.3023621183
460,0.0245,0.0202,0.9013018909,0.9259090672,0.6598,0.6980635614,0.6011,0.6006273455,0.5062,0.2808616665,0.3174621806,0.3032196111
461,0.0245,0.0205,0.8992387988,0.9256463653,0.6644,0.6970928539,0.6018,0.5999936755,0.5071,0.2825427255,0.3182587735,0.3032988768
462,0.0246,0.0206,0.8997728376,0.9252812243,0.6662,0.6981646507,0.6022,0.6024295169,0.508,0.2829859512,0.3190309823,0.3035374757
463,0.0247,0.0203,0.902144144,0.9257455331,0.6657,0.7004084026,0.6027,0.6064114015,0.5088,0.2828701426,0.3198870208,0.3041434247
464,0.0247,0.0201,0.9038609885,0.9279579892,0.6666,0.7014715781,0.6036,0.608850502,0.5097,0.2838831588,0.3208843355,0.3048954816
465,0.0247,0.02,0.9044232843,0.9298770171,0.6683,0.7020131971,0.6048,0.6095398056,0.5105,0.2855621512,0.3219621566,0.3056494325
466,0.0248,0.02,0.9044881085,0.9282489802,0.6683,0.704148098,0.6061,0.6099036826,0.5113,0.2863536213,0.3229975208,0.3063179826
467,0.0249,0.0202,0.9043924681,0.9253355395,0.6673,0.7065622804,0.6074,0.6105337044,0.512,0.2866226746,0.3239413863,0.306898524
468,0.0249,0.0201,0.904266716,0.9261511159,0.6677,0.7062682036,0.6088,0.6114519381,0.5126,0.2877159758,0.3247971828,0.3074453679
469,0.025,0.0198,0.9041482251,0.9304429098,0.669,0.7039988656,0.6099,0.6120015755,0.5132,0.289342549,0.3256549281,0.3080891423
470,0.0251,0.0198,0.9040306934,0.934852367,0.6693,0.7025268672,0.6108,0.6113315049,0.5137,0.2903596625,0.3266404264,0.3089655785
471,0.0251,0.02,0.9040069526,0.9362543767,0.6696,0.7028896535,0.6115,0.6106744685,0.5143,0.2908825021,0.3277257077,0.3098027775
472,0.0252,0.0203,0.9041820157,0.9323040693,0.6719,0.7049702401,0.6126,0.6121953174,0.5149,0.291705345,0.3288018919,0.3101627103
473,0.0252,0.0206,0.9041794474,0.9270452463,0.675,0.7074620628,0.6138,0.6149748803,0.5157,0.292904901,0.3298641779,0.3103753098
474,0.0253,0.0206,0.9034600284,0.9274213739,0.6756,0.708543093,0.6147,0.6165053659,0.5165,0.2941364235,0.3309594974,0.3111269983
475,0.0254,0.0204,0.90273718,0.9314629276,0.6749,0.708223968,0.6153,0.6167349266,0.5174,0.2951279256,0.3320285964,0.3120942034
476,0.0255,0.0202,0.903301846,0.932609061,0.6763,0.7075734861,0.6157,0.6169745184,0.5183,0.295700839,0.3329651734,0.3124630314
477,0.0256,0.0201,0.9047652224,0.9314116287,0.6797,0.7073822929,0.6164,0.6175214866,0.5192,0.2961646987,0.3338280063,0.3125370142
478,0.0257,0.0201,0.9058147368,0.9321235514,0.6829,0.7081571937,0.6176,0.6180925645,0.52,0.2970505574,0.3347620973,0.3131943656
479,0.0258,0.0201,0.9058769455,0.9335256703,0.6846,0.7092520932,0.6187,0.6186910274,0.5207,0.2982109449,0.3357934958,0.3144019535
480,0.0259,0.0202,0.9049482445,0.9317444984,0.684,0.70951341,0.619,0.619511488,0.5216,0.299150024,0.3368722669,0.3156086742
481,0.026,0.0204,0.9043335475,0.9291226633,0.683,0.7095477315,0.6189,0.620933004,0.5226,0.2999254478,0.3378952948,0.3165117621
482,0.0261,0.0207,0.9058137686,0.9310038676,0.6845,0.7108144932,0.6193,0.6233237219,0.5238,0.3008908283,0.3387474601,0.3169996149
483,0.0263,0.0208,0.9081593639,0.9356463195,0.6881,0.7128175624,0.6202,0.6258308651,0.5251,0.3020567592,0.3395076301,0.3173808753
484,0.0264,0.0207,0.908597208,0.9376681877,0.6916,0.7140233781,0.6209,0.6270276232,0.5264,0.3032398382,0.3403554384,0.3181586755
485,0.0266,0.0204,0.9067911407,0.9374988589,0.6939,0.7141656503,0.6214,0.6269961088,0.5277,0.3043663328,0.3413283949,0.3192995776
486,0.0268,0.0203,0.903923417,0.9385915966,0.6944,0.713791575,0.6216,0.6266565022,0.5289,0.3054252116,0.3423700649,0.3204740202
487,0.027,0.0205,0.9018882799,0.9399379556,0.6946,0.7140466458,0.622,0.6263457748,0.53,0.3063695464,0.3433276806,0.3215786024
488,0.0272,0.0207,0.9027008306,0.9383143884,0.6962,0.7161403717,0.6232,0.6260748078,0.531,0.3071593519,0.3440210384,0.3226348722
489,0.0274,0.0208,0.9054071102,0.9350410138,0.6985,0.7183633177,0.6245,0.6261059815,0.5321,0.3080498814,0.3445660116,0.3235535879
490,0.0276,0.0207,0.9074976507,0.9337640081,0.6996,0.7177326106,0.6249,0.6267966041,0.5333,0.3094003911,0.3452268088,0.3242152197
491,0.0278,0.0204,0.9084967167,0.9342958547,0.7003,0.7159014162,0.6248,0.6279265911,0.5345,0.3108462571,0.3459936171,0.3248721418
492,0.028,0.0205,0.9090833322,0.9344608409,0.7033,0.7167743267,0.6256,0.6289604132,0.5357,0.3116994374,0.3467081688,0.3259419838
493,0.0283,0.0206,0.9093491619,0.9350896215,0.7076,0.7191633273,0.6272,0.6296300287,0.5369,0.3123499339,0.3473601786,0.3272809793
494,0.0286,0.0207,0.9090906639,0.9384198918,0.7105,0.7193215506,0.6286,0.6299135011,0.5381,0.313707737,0.3480233888,0.3284388496
495,0.0288,0.0207,0.9087248352,0.9427486635,0.7117,0.7182786587,0.6298,0.6306756625,0.5394,0.3154598426,0.3487260567,0.329233115
496,0.0291,0.0206,0.9089400323,0.9443388287,0.7125,0.7194566644,0.6312,0.6331226634,0.5407,0.3166681682,0.3494725861,0.3296877628
497,0.0294,0.0206,0.9094234644,0.9425648281,0.714,0.7216829917,0.6325,0.6366029152,0.5421,0.3174309921,0.3503047681,0.3303031378
498,0.0297,0.0207,0.9093689709,0.9387514264,0.7165,0.721515591,0.633,0.6394205725,0.5435,0.3184039186,0.3512734287,0.3317500716
499,0.0301,0.0209,0.9089957548,0.9352471526,0.7196,0.7202543398,0.6335,0.6404404954,0.5449,0.3196351372,0.3522930874,0.3335744872
500,0.0304,0.0208,0.9090226303,0.9346784272,0.7224,0.7215619272,0.635,0.6390973595,0.5463,0.3208483236,0.3532156983,0.334766878
501,0.0308,0.0208,0.9090425226,0.9364589255,0.7242,0.7244350107,0.637,0.6372112903,0.5476,0.3221602548,0.3540781832,0.3354482283
